665.2547999999999,0.2946018131809923
664.8352,0.29622455237601536
664.4156,0.2969135004682616
663.996,0.2971153291379066
663.5763999999999,0.2973316352940748
663.1568,0.2977040114045899
662.7372,0.29801706614014367
662.3176,0.2983328747537445
661.898,0.29845350221389005
661.4784,0.29847280001864673
661.0588,0.2984916966977809
660.6392,0.29838912856131694
660.2196,0.29853410705751826
659.8,0.29877039052817145
659.3804,0.2990470231894294
658.9608,0.2993212287341612
658.5412,0.2993533027937464
658.1216,0.29944633310255037
657.702,0.2994523527155628
657.2824,0.2993044370125786
656.8628,0.2994452841348446
656.4431999999999,0.29946505721275807
656.0236,0.2994968172791909
655.604,0.2998239002695822
655.1844,0.2997988838829998
654.7647999999999,0.2998395523856227
654.3452,0.29994930286561017
653.9256,0.2998389394197702
653.506,0.2998832000479102
653.0864,0.2998906911672641
652.6668,0.29982305274801657
652.2472,0.299832849352279
651.8276,0.29993101324893306
651.408,0.29987580445482365
650.9884,0.2997611928965258
650.5688,0.299915455878266
650.1492,0.3000996626781725
649.7296,0.3002077813450277
649.31,0.3003026733715331
648.8904,0.3004416714368217
648.4708,0.3005532607550627
648.0512,0.30067802396110477
647.6315999999999,0.30092326165182487
647.212,0.3010046792516252
646.7924,0.3008983224047682
646.3728,0.3009740832777707
645.9531999999999,0.3011684910038196
645.5336,0.3011344814631328
645.114,0.30125237907341706
644.6944,0.3012163455925477
644.2748,0.30103756874581916
643.8552,0.30112515786958616
643.4356,0.3012779160826631
643.016,0.3016211866679309
642.5964,0.3020096910108065
642.1768,0.3022211897070689
641.7572,0.3022012251749604
641.3376,0.3021555044258513
640.918,0.30206479536876973
640.4984,0.3021062016205056
640.0788,0.30236168357303783
639.6592,0.30254727508904883
639.2396,0.3027341548148896
638.8199999999999,0.3028021902180825
638.4004,0.3027344196939364
637.9808,0.30291824828731373
637.5612,0.3032419608206714
637.1415999999999,0.30346093365558036
636.722,0.3036065639147621
636.3024,0.30349700769310173
635.8828,0.30323137224616237
635.4632,0.3033019385818264
635.0436,0.30362276581186215
634.624,0.30392239297277057
634.2044,0.3044402337751916
633.7848,0.3047380150525219
633.3652,0.3048730593854967
632.9456,0.3050700552532233
632.526,0.3051482279653127
632.1064,0.3052155825855453
631.6868,0.3052831470039126
631.2672,0.3055283029194186
630.8476,0.3057252255847357
630.428,0.30607644993819716
630.0083999999999,0.3064657725471065
629.5888,0.30662766754883564
629.1692,0.3068535344653169
628.7496,0.3069572357457917
628.3299999999999,0.3071360932931114
627.9104,0.30730164116936265
627.4908,0.3074124713735119
627.0712,0.30777893663935485
626.6516,0.3079542180647851
626.232,0.30820360946279046
625.8124,0.3085842856773839
625.3928,0.30876697908960743
624.9732,0.3090803383326294
624.5536,0.3092641980606055
624.134,0.3092377185529542
623.7144,0.30927760618633193
623.2948,0.30944197836182286
622.8752,0.3097254776163031
622.4556,0.3100268981943576
622.0360000000001,0.3103470278060154
621.6164,0.3105872956858871
621.1967999999999,0.3107367521658314
620.7772,0.31103437828389613
620.3576,0.31137128520206275
619.938,0.31173630716214035
619.5183999999999,0.31209583023938
619.0988,0.31224659285292095
618.6792,0.31238047998589763
618.2596,0.3124884774794181
617.8399999999999,0.3126839069902444
617.4204,0.31300487702275637
617.0008,0.31326722716048105
616.5812,0.3133581456643863
616.1616,0.313421609374228
615.742,0.3135794488909301
615.3224,0.31378627529774494
614.9028,0.3142780972350749
614.4832,0.31478620122643214
614.0636,0.3150684719736213
613.644,0.315244734445828
613.2244000000001,0.31523954700760753
612.8048,0.31528113213167047
612.3851999999999,0.31562535830454125
611.9656,0.3159675778907303
611.546,0.3162193958462991
611.1264,0.3165470633992302
610.7067999999999,0.31680273939104014
610.2872,0.31709051622695966
609.8676,0.31760801742788825
609.448,0.3181193918721647
609.0283999999999,0.3184541160744314
608.6088,0.3189590977652245
608.1892,0.31930479824280517
607.7696,0.3192680563396603
607.35,0.31940932218165174
606.9304,0.31933331143878074
606.5108,0.31945866068260437
606.0912,0.3199598133191578
605.6716,0.32042981841900203
605.252,0.3210143448781057
604.8324,0.32125931283070164
604.4128000000001,0.321636557222724
603.9932,0.3221323552344354
603.5735999999999,0.32228131357777806
603.154,0.32265326286652074
602.7344,0.3229474790447733
602.3148,0.3229118276336661
601.8951999999999,0.3232596151633796
601.4756,0.32357155966471646
601.056,0.3237109431693318
600.6364,0.324160110746635
600.2167999999999,0.32467995185311743
599.7972,0.3251392115641452
599.3776,0.32549472766280735
598.958,0.3258522620762834
598.5384,0.32601584861157235
598.1188,0.3261709702951589
597.6992,0.32655194704434987
597.2796,0.3269022655222543
596.86,0.3272589517721242
596.4404,0.3275932343632835
596.0208,0.327897841353398
595.6012,0.32810574017228067
595.1816,0.32842427464768986
594.762,0.3288478403530967
594.3424,0.3291849156332412
593.9228,0.32969387215023704
593.5032,0.3300978294500978
593.0835999999999,0.330519146030581
592.664,0.33084609113991803
592.2444,0.3309134952863055
591.8248,0.3309977177830922
591.4051999999999,0.3310885415949293
590.9856,0.3314780015794524
590.566,0.33175709942155635
590.1464,0.3320162774504218
589.7268,0.3324445283907397
589.3072,0.3326850766587248
588.8876,0.33297138230248924
588.468,0.3332921449446064
588.0484,0.3337401942501321
587.6288,0.33409852142167845
587.2092,0.33425098744688725
586.7896,0.33434561374396743
586.37,0.33425025450020884
585.9504,0.3342580737193563
585.5308,0.33449536024678855
585.1112,0.3347950658732988
584.6916,0.3349429368047077
584.2719999999999,0.33531666912406016
583.8524,0.33593734605991843
583.4328,0.33649078351418565
583.0132,0.3367970708224447
582.5935999999999,0.3368839546507331
582.174,0.33698492927034307
581.7544,0.3370216032480346
581.3348,0.3372250621893463
580.9152,0.33741977432345277
580.4956,0.33749979286404386
580.076,0.3377131652014344
579.6564,0.3380903073239713
579.2368,0.3386037613705801
578.8172,0.33888066850927356
578.3976,0.33918895534979554
577.978,0.33963878011161247
577.5584,0.33973876591598406
577.1388,0.3401602782729443
576.7192,0.3406596847209941
576.2996,0.3408109703280765
575.88,0.34115865521732636
575.4603999999999,0.34132790105618793
575.0408,0.3413158102280414
574.6212,0.3415179005111159
574.2016,0.34178218143143035
573.782,0.34205728341862596
573.3624,0.3422514444431089
572.9428,0.3424854597502834
572.5232,0.3428094120812902
572.1036,0.34329213225337674
571.684,0.34400432983246165
571.2644,0.3446803277457833
570.8448,0.34507414951069604
570.4252,0.34517526428015494
570.0056,0.34521328234872944
569.586,0.3452748714943682
569.1664,0.34542810409083413
568.7468,0.34568802769320045
568.3272,0.3460235008516273
567.9076,0.34646295364748647
567.488,0.3469186966019441
567.0684,0.3473060959447842
566.6487999999999,0.34755321365638747
566.2292,0.34755880401072475
565.8096,0.34760073088183174
565.39,0.3478114565852205
564.9704,0.3482917254385952
564.5508,0.3487937816733936
564.1312,0.34922785545270024
563.7116,0.34975817871969384
563.292,0.35020098520757403
562.8724,0.35061175874322537
562.4528,0.35073104783340453
562.0332,0.35067493073700323
561.6136,0.3507815126025224
561.194,0.35103994543489275
560.7744,0.3514971442694371
560.3548,0.352013506132727
559.9352,0.35240629795173767
559.5156,0.3527127262814382
559.096,0.3529294021642635
558.6764,0.3532900336409345
558.2568,0.3535752689919265
557.8371999999999,0.35369994667571997
557.4176,0.354028424266263
556.998,0.3543242879241259
556.5784,0.35472336027305923
556.1588,0.35526687537513674
555.7392,0.3559535591907983
555.3196,0.35664044964107555
554.9,0.35700670686955666
554.4804,0.35708043487711094
554.0608,0.35717765414380137
553.6412,0.3575096058333027
553.2216,0.35825701832754886
552.802,0.359288678195129
552.3824,0.359982350858063
551.9628,0.36025691301324236
551.5432,0.3603045752106512
551.1236,0.3604212077694118
550.704,0.36071231783971724
550.2844,0.36110157839179524
549.8648,0.36160085268491293
549.4452,0.3621073376177472
549.0255999999999,0.3627222558307973
548.606,0.3633304814452551
548.1864,0.3638759757950943
547.7668,0.36422583335655395
547.3471999999999,0.3644296549503328
546.9276,0.3649849491686316
546.508,0.3656150023380793
546.0884,0.36636158574763095
545.6688,0.3670036848693967
545.2492,0.367485369487041
544.8296,0.367791407640977
544.41,0.3680028445650918
543.9904,0.3686935835624637
543.5708,0.3693706123721754
543.1512,0.37017718141321904
542.7316,0.37117553805198483
542.312,0.37169345335008597
541.8924,0.37225212261921103
541.4728,0.37261620111525023
541.0532,0.37292590885038157
540.6336,0.3739181248919453
540.2139999999999,0.3746697191940647
539.7944,0.375502559100795
539.3748,0.37631532216615926
538.9552,0.3769548551099048
538.5355999999999,0.37778248179834656
538.116,0.37854350842571516
537.6964,0.3795163684854552
537.2768,0.38029661686029675
536.8572,0.3807987505666396
536.4376,0.38100570577361037
536.018,0.381379960547355
535.5984,0.3818358539778443
535.1788,0.3823786187151802
534.7592,0.38347725756317547
534.3396,0.38417518326003813
533.92,0.3849605117790229
533.5004,0.3860589733643606
533.0808,0.3867871074279273
532.6612,0.38757477867541684
532.2416,0.388414463377325
531.822,0.3889592599238118
531.4024,0.38981801681347794
530.9828,0.39080903219672625
530.5632,0.391697624180023
530.1436,0.3926015165422465
529.7239999999999,0.39300513244067253
529.3044,0.39350872778712376
528.8848,0.3940826517922873
528.4652,0.3946982746086137
528.0456,0.3956655641903132
527.626,0.39666199345999337
527.2064,0.39743512439513384
526.7868,0.3980178282205334
526.3672,0.3988949744259264
525.9476,0.39943497749565116
525.528,0.39973047598923184
525.1084,0.40049303167219574
524.6888,0.40121377680061115
524.2692,0.4017462192375146
523.8496,0.40238502744491494
523.43,0.4029979392115286
523.0104,0.40328865267110275
522.5908,0.4040266197538123
522.1712,0.40515502788190594
521.7516,0.40600769058153086
521.332,0.40681614122868937
520.9123999999999,0.40773654053280145
520.4928,0.4082655604638269
520.0732,0.40834824222106864
519.6536,0.40907820230619696
519.234,0.41010324060610176
518.8144,0.41111910424781845
518.3948,0.41230117818957823
517.9752,0.4129602615614829
517.5556,0.41278765052744676
517.136,0.41295180732960585
516.7164,0.41402815155935074
516.2968,0.41500882777402315
515.8772,0.4159082749558563
515.4576,0.4163696235448938
515.038,0.41647833583920596
514.6184,0.4169611935049466
514.1988,0.4173968706035434
513.7792,0.41825925709171924
513.3596,0.41916323571426517
512.94,0.4199011531043049
512.5204,0.4207342861801089
512.1007999999999,0.4216014024162584
511.6812,0.4222155711197474
511.2616,0.4226082070187789
510.842,0.42368017176429124
510.4224,0.42462516143192897
510.0028,0.4258014885702097
509.5832,0.42693230301754787
509.1636,0.4274716319040036
508.744,0.42793984803761664
508.32439999999997,0.4282519476472681
507.9048,0.4290566697195507
507.4852,0.42969536731275026
507.0656,0.4307061355825652
506.646,0.43158393204155243
506.2264,0.43184306622320245
505.8068,0.432683742183659
505.3872,0.4328637387908884
504.9676,0.4333264298927579
504.548,0.4344198664398732
504.1284,0.4354135246912697
503.7088,0.4364574130964638
503.2892,0.43722732096182626
502.8696,0.4379667735184391
502.45,0.43929170845542675
502.0304,0.44083040978376975
501.6108,0.4421090501916711
501.1912,0.4428509415952678
500.7716,0.44288578762492314
500.352,0.44310533453788026
499.9324,0.4439197957532976
499.51279999999997,0.44513611073237025
499.0932,0.44626053005448957
498.67359999999996,0.4469630405712715
498.254,0.44736858581262967
497.8344,0.4485808753990309
497.4148,0.4499884966472878
496.9952,0.45136667768561006
496.5756,0.45299329092060037
496.156,0.45380395182043365
495.7364,0.4543340719665136
495.3168,0.4556107488678028
494.8972,0.4570314531313921
494.4776,0.45771370059546057
494.058,0.4591904389838064
493.6384,0.4601543295423867
493.2188,0.4603240802618263
492.7992,0.4612997270787394
492.3796,0.4615628767754923
491.96,0.46218262462805654
491.5404,0.46323396485011464
491.1208,0.46438363121497417
490.7012,0.4659587076177946
490.2816,0.4675962192356728
489.86199999999997,0.4691908333345397
489.4424,0.4708100860095229
489.0228,0.4723179187967837
488.6032,0.4729507006833844
488.1836,0.4740938229947349
487.764,0.4749847929313837
487.3444,0.4756097243631635
486.9248,0.4769113273171789
486.5052,0.4784851673724339
486.0856,0.4803421968922051
485.666,0.48183210057675396
485.2464,0.48334234813391397
484.8268,0.4844413840600392
484.4072,0.4849361292080986
483.9876,0.48567443978358926
483.568,0.48654853961648653
483.1484,0.48737385806028616
482.7288,0.48886637969605895
482.3092,0.4910228290628555
481.8896,0.4930336940761812
481.47,0.49448752932422413
481.05039999999997,0.49515875160525546
480.6308,0.4956697963029191
480.2112,0.49618355621184845
479.7916,0.49743481897898084
479.372,0.4993135280144194
478.9524,0.5008050752056734
478.5328,0.5023991044756927
478.1132,0.5033895231961967
477.6936,0.5047698207290497
477.274,0.5068070132139455
476.8544,0.5085307147057196
476.4348,0.5102144511311574
476.0152,0.5111217225829716
475.5956,0.5116494366286481
475.176,0.5121402527776959
474.7564,0.5130566300118469
474.3368,0.5148203688035556
473.9172,0.5168248252508905
473.4976,0.5187294795308119
473.078,0.5203129561895107
472.65840000000003,0.5215429671565663
472.23879999999997,0.5228273449479507
471.8192,0.524844842636229
471.3996,0.5265117302026008
470.98,0.5276692396014867
470.5604,0.5289509932037199
470.1408,0.5300707314625482
469.7212,0.5316713677637652
469.3016,0.5333946787724494
468.882,0.535052540673448
468.4624,0.535664321786757
468.0428,0.5358986592998859
467.6232,0.5367937297934947
467.2036,0.5380028725779918
466.784,0.540353292582843
466.3644,0.5431681570991794
465.9448,0.5460660720808609
465.5252,0.5474510441632449
465.1056,0.5483912020910838
464.686,0.5494301776532645
464.2664,0.5501988051444135
463.8468,0.5526237746204645
463.42719999999997,0.5552455755426748
463.0076,0.5572320564348828
462.588,0.558623757959092
462.1684,0.559657908625399
461.7488,0.5612439207508848
461.3292,0.5628330737569651
460.9096,0.5646472139418249
460.49,0.5664438743222361
460.0704,0.5671422160893069
459.6508,0.5689030891273223
459.2312,0.5704493295689618
458.8116,0.5720454567912451
458.392,0.5749220182101333
457.9724,0.5766091235591985
457.5528,0.5790302651529373
457.1332,0.5811975502465762
456.7136,0.5823386572547242
456.294,0.5843410769389025
455.8744,0.5855574980107839
455.4548,0.5866407146262522
455.0352,0.5884974850073532
454.6156,0.5905080301670738
454.196,0.5932818955536197
453.7764,0.5956203394210394
453.3568,0.5971105910688085
452.9372,0.5990479261838892
452.5176,0.6004963525439778
452.098,0.6020388682467844
451.6784,0.6044752931556892
451.2588,0.6065619817491532
450.8392,0.6086320808942354
450.4196,0.6112776229720234
450.,0.6141309454310506
449.5804,0.6160478530090097
449.1608,0.6182370699224424
448.7412,0.6197373695513853
448.3216,0.6209873295510872
447.902,0.6234264009522511
447.4824,0.625278295221357
447.0628,0.6284131915372723
446.6432,0.6314344272341591
446.2236,0.6331474108505261
445.804,0.6348697129453869
445.3844,0.6361691589500659
444.9648,0.6378767299386223
444.5452,0.6402360544084368
444.1256,0.6429230363067686
443.706,0.6465143581277436
443.2864,0.648463887030197
442.8668,0.6504263224392138
442.4472,0.6528572263260439
442.0276,0.6536437100025309
441.608,0.6558812690094571
441.1884,0.6579212424227647
440.7688,0.6599104638757323
440.3492,0.6631676135699303
439.9296,0.665973677690837
439.51,0.6691507562013362
439.0904,0.6719334070483185
438.6708,0.673997843155407
438.2512,0.6756811631524059
437.8316,0.6769912910281545
437.412,0.6796298550234782
436.9924,0.6818359112382568
436.57280000000003,0.6841963174634864
436.1532,0.6876075396414981
435.7336,0.6899416876973419
435.314,0.6925615244612217
434.8944,0.695697323162461
434.4748,0.6982367679398958
434.0552,0.7001943412937229
433.6356,0.7021974133818976
433.216,0.7050125655839605
432.7964,0.7084067681815643
432.3768,0.7127823090057868
431.9572,0.7163071451897773
431.5376,0.7184890984033454
431.118,0.7213813083637589
430.6984,0.724625207938684
430.2788,0.7282362861173751
429.8592,0.7327561085784606
429.4396,0.734689914855356
429.02,0.7347262650863609
428.6004,0.7382304963933989
428.1808,0.7418059317854834
427.76120000000003,0.7451640010186967
427.34159999999997,0.7507723086173055
426.922,0.75440329283831
426.5024,0.757009759514844
426.0828,0.7608153915178141
425.6632,0.7622213944118481
425.2436,0.7632791816208818
424.824,0.7642213781450862
424.4044,0.7659927718459048
423.9848,0.771234752180037
423.5652,0.7750999122443805
423.1456,0.778656325469311
422.726,0.7795505788349286
422.3064,0.7815876184528989
421.8868,0.7862653409887407
421.4672,0.7893311228313746
421.0476,0.7953775115916081
420.628,0.7992799817805838
420.2084,0.8008090852221327
419.7888,0.8050026104191295
419.3692,0.8093659009207209
418.94960000000003,0.8136303224830157
418.53,0.8188554260250502
418.1104,0.8231323566096402
417.6908,0.8269021092208652
417.2712,0.8281945346962102
416.8516,0.8300411767146766
416.432,0.8341956966566606
416.0124,0.836301845669154
415.5928,0.8400130890432183
415.1732,0.8426090228834097
414.7536,0.844936006552577
414.334,0.8521989794459169
413.9144,0.8579025661581934
413.4948,0.8623852229037627
413.0752,0.8662338135767375
412.6556,0.8658909918497085
412.236,0.8665189505186599
411.8164,0.8705962064022388
411.3968,0.876766363352593
410.9772,0.8832425364412702
410.5576,0.8885765683332371
410.13800000000003,0.892696750401242
409.7184,0.8950305943310364
409.2988,0.8989121394880185
408.8792,0.9040316314437483
408.4596,0.9088681975158551
408.04,0.9132775745446352
407.6204,0.9155758151783118
407.2008,0.9205001144518334
406.7812,0.9238080105183964
406.3616,0.9251591330359761
405.942,0.92917806548071
405.5224,0.9336287686339263
405.1028,0.9394200887634873
404.6832,0.9467509648092944
404.2636,0.9542530734439736
403.844,0.9566647259866267
403.4244,0.9587123080504447
403.0048,0.9634665449617327
402.5852,0.967576528086556
402.1656,0.9774085460383694
401.746,0.9875051887997544
401.32640000000004,0.9939020834596148
400.9068,0.9974967579574378
400.48720000000003,0.9960342610310358
400.0676,0.9988157917904872
399.648,1.0042475648197478
399.2284,1.010538665680124
398.8088,1.0164998991311218
398.3892,1.0221388697236937
397.9696,1.0276430247400403
397.55,1.0330042603395528
397.1304,1.0395209198579236
396.7108,1.0458855779185425
396.2912,1.051991520205097
395.8716,1.0589095737617076
395.452,1.0653649413098865
395.0324,1.0723934778348796
394.6128,1.0803191660914933
394.1932,1.0873353550829576
393.7736,1.0944775454668516
393.354,1.1018521637471246
392.9344,1.1087139976303768
392.5148,1.11567153700677
392.0952,1.1227742125188307
391.67560000000003,1.1298928745018824
391.256,1.1376185414113271
390.8364,1.145774104297693
390.4168,1.153930110621416
389.9972,1.1621663053217708
389.5776,1.1704468073965357
389.158,1.179021254064956
388.7384,1.188061429255452
388.3188,1.197504647082504
387.8992,1.2074379689189165
387.4796,1.2172448532426003
387.06,1.2270997397999452
386.6404,1.2369806799197873
386.2208,1.2462506504155695
385.8012,1.255469061397723
385.3816,1.264595479512035
384.962,1.2737596205047061
384.5424,1.2839062625781412
384.1228,1.294495418829295
383.70320000000004,1.3056539810065368
383.2836,1.3161140294534746
382.86400000000003,1.3257451897991277
382.4444,1.335602745713573
382.0248,1.3447527453969763
381.6052,1.3548215722158388
381.1856,1.3650973071449024
380.766,1.375246395090411
380.3464,1.3856728282927615
379.9268,1.3954369046538035
379.5072,1.4051639718258109
379.0876,1.4148206680270283
378.668,1.4238886025617492
378.2484,1.4330248263836916
377.8288,1.442756677026692
377.4092,1.4529674112281068
376.9896,1.4637982679376986
376.57,1.4746968551326791
376.1504,1.4850310306281005
375.7308,1.4942724045576368
375.3112,1.5034511847140624
374.89160000000004,1.5129247585479202
374.472,1.5216963353086004
374.05240000000003,1.5304550240204906
373.6328,1.539357827511964
373.21320000000003,1.547639847141158
372.79359999999997,1.5551339483600326
372.374,1.562914052784469
371.9544,1.5705583138797594
371.5348,1.5785485574735194
371.1152,1.5879210864726025
370.6956,1.5967099792418544
370.276,1.6050434407237815
369.8564,1.6134498819978147
369.4368,1.6215419339994417
369.0172,1.6297071170924087
368.5976,1.6369841005972006
368.178,1.6431595987189385
367.7584,1.6494378360254145
367.3388,1.6553409247056026
366.9192,1.660847322101885
366.4996,1.6665420542324427
366.08000000000004,1.6719601630571248
365.6604,1.6769969751201257
365.24080000000004,1.6821264686451436
364.8212,1.6869422725640708
364.40160000000003,1.6908111099009808
363.98199999999997,1.6945299409327157
363.5624,1.6984246224800386
363.1428,1.7025678355657696
362.7232,1.7067603447253068
362.3036,1.7107622548276002
361.884,1.7144999958043945
361.4644,1.7175510976112511
361.0448,1.7206272791612314
360.6252,1.7238720660234945
360.2056,1.726680424073993
359.786,1.728733910594483
359.3664,1.7298025259781145
358.9468,1.7308518245959967
358.5272,1.7328726128173815
358.1076,1.7341654418791204
357.688,1.7356146971330935
357.2684,1.7371801079057538
356.8488,1.737920696971966
356.42920000000004,1.7397671002763417
356.0096,1.7412004576745743
355.59000000000003,1.7420790986234405
355.1704,1.7432546665632895
354.7508,1.7444774909801812
354.3312,1.7457541312079177
353.9116,1.74629051075644
353.492,1.7453214504603292
353.0724,1.744083319755115
352.6528,1.7440676192251654
352.2332,1.7449883774877448
351.8136,1.7470924935120684
351.394,1.7493520315660638
350.9744,1.7501877283725586
350.5548,1.7495645734173435
350.1352,1.7496198027153194
349.7156,1.7497411056185395
349.296,1.750412794533634
348.8764,1.7521676843734821
348.4568,1.7531786273057464
348.0372,1.7544564046205386
347.61760000000004,1.7554611998145477
347.198,1.756270489910283
346.77840000000003,1.7569074587836502
346.3588,1.7583158082204924
345.9392,1.7606234162337766
345.5196,1.7642316706417762
345.1,1.7692352203230346
344.6804,1.7735749398908682
344.2608,1.778075361574342
343.8412,1.782090573844094
343.4216,1.7852736196656382
343.002,1.788411458581701
342.5824,1.792288739964339
342.1628,1.7965820456552917
341.7432,1.8002957010524707
341.3236,1.8043180310541023
340.904,1.8070306824528872
340.4844,1.8079209500016251
340.0648,1.8089652397194544
339.6452,1.8103238038986724
339.2256,1.8117289402525507
338.80600000000004,1.8140628521835658
338.3864,1.8177735968293132
337.96680000000003,1.821196299488466
337.5472,1.8250043372922748
337.12760000000003,1.8300244712784348
336.708,1.8342516169791336
336.2884,1.8391701037495647
335.8688,1.8452111605973898
335.4492,1.850464931108455
335.0296,1.856163888533771
334.61,1.8626105783553801
334.1904,1.869586750739012
333.7708,1.8779007198641062
333.3512,1.8870135241356982
332.9316,1.8947680516146508
332.512,1.9018748870908684
332.0924,1.9098583630855257
331.6728,1.9180822885095616
331.2532,1.926684545748224
330.8336,1.9367502569413233
330.414,1.9469086720101854
329.99440000000004,1.9570261935599302
329.5748,1.9688084165296174
329.15520000000004,1.9793388499353455
328.7356,1.9887776687282732
328.31600000000003,1.9986014927552769
327.8964,2.0089929356181417
327.4768,2.020207794145938
327.0572,2.0326955953111114
326.6376,2.0458232313866738
326.218,2.0577785000329767
325.7984,2.070983912226933
325.3788,2.084811849029278
324.9592,2.0980773244643376
324.5396,2.1129842128678606
324.12,2.126642988662937
323.7004,2.1399810988308943
323.2808,2.155184927734031
322.8612,2.1699648397917173
322.4416,2.1859600363327707
322.022,2.2020674114867536
321.6024,2.2176282127626594
321.18280000000004,2.2340477534072023
320.7632,2.250617057323197
320.34360000000004,2.2674279096005665
319.924,2.283983871057189
319.50440000000003,2.301028355045462
319.0848,2.3193382038400223
318.6652,2.3374703447856273
318.24559999999997,2.356342993764295
317.826,2.375181699807201
317.4064,2.3917340246130037
316.9868,2.409875938501182
316.5672,2.429135843087072
316.1476,2.4463204742027567
315.728,2.465067903483247
315.3084,2.48390182752895
314.8888,2.501216169144298
314.4692,2.520048889838561
314.0496,2.5394729663930544
313.63,2.5593986223976475
313.21040000000005,2.5794635675181237
312.7908,2.5995170535271925
312.37120000000004,2.619020198884442
311.9516,2.636304361247174
311.53200000000004,2.653580138892957
311.1124,2.670909094054928
310.69280000000003,2.6892226203293514
310.2732,2.7089143266565694
309.85360000000003,2.727333092112023
309.43399999999997,2.7455702693652495
309.0144,2.761900215470495
308.5948,2.7765131311269053
308.1752,2.793301006494671
307.7556,2.810229026334577
307.336,2.827320977916933
306.9164,2.8458402894883235
306.4968,2.8630725525978913
306.0772,2.880095883551105
305.6576,2.8982137185088104
305.238,2.9153211644566994
304.8184,2.931255924435532
304.39880000000005,2.9471879618742576
303.9792,2.962633137671245
303.55960000000005,2.97867680787786
303.14,2.996284353152199
302.72040000000004,3.0147503464004095
302.3008,3.0333329553427673
301.88120000000004,3.05127384468447
301.4616,3.0704269054406885
301.04200000000003,3.0902292884410567
300.62239999999997,3.109153421362676
300.2028,3.127909812235048
299.7832,3.1465119391022083
299.3636,3.165264817455346
298.944,3.1858907907977883
298.5244,3.207123314106719
298.1048,3.2277110679888414
297.6852,3.2497603955384693
297.2656,3.270919301135746
296.846,3.2923074277437405
296.4264,3.3146891228061897
296.0068,3.3356070949122714
295.5872,3.3573151471696714
295.1676,3.3780002338113104
294.74800000000005,3.3987013849692027
294.3284,3.4218536951844896
293.90880000000004,3.447135200034993
293.4892,3.4757009995596277
293.06960000000004,3.504393518992344
292.65,3.532160802187748
292.23040000000003,3.559326573321378
291.8108,3.5862385744103356
291.3912,3.615917361283099
290.9716,3.6455917518681162
290.552,3.675315225848876
290.1324,3.7072005294039587
289.7128,3.737867688460356
289.2932,3.7681019743917825
288.8736,3.8005305767618944
288.454,3.8337179637427856
288.0344,3.868181000049368
287.6148,3.905705452377712
287.1952,3.942315970506837
286.7756,3.9785450816602332
286.356,4.01724255848211
285.93640000000005,4.0554840237694645
285.5168,4.094423784023729
285.09720000000004,4.134651562862696
284.6776,4.172538111951844
284.25800000000004,4.211567434759514
283.8384,4.253422687458894
283.41880000000003,4.294133883543277
282.9992,4.336538148777071
282.5796,4.380567154219193
282.16,4.424248461378137
281.7404,4.469252561468769
281.3208,4.515076213224736
280.9012,4.559641137764329
280.4816,4.6027983336563665
280.062,4.6473547428579725
279.6424,4.692241092063817
279.2228,4.7374538093056575
278.8032,4.785049806590287
278.3836,4.835079894526735
277.964,4.884772252355572
277.5444,4.935655676219761
277.12480000000005,4.988514990211691
276.7052,5.040156744275498
276.28560000000004,5.090524274857793
275.866,5.138906211259661
275.44640000000004,5.187968527492121
275.0268,5.235864331008659
274.60720000000003,5.283118511606533
274.1876,5.3345348992291015
273.76800000000003,5.383288579849565
273.34839999999997,5.431737264882095
272.9288,5.4872748456088525
272.5092,5.544816434601851
272.0896,5.5998040007984535
271.67,5.655429569486164
271.2504,5.709803969045094
270.8308,5.75627973217756
270.4112,5.807990012923951
269.9916,5.862641248110061
269.572,5.914723105787975
269.1524,5.972693299604981
268.7328,6.030296143136603
268.31320000000005,6.086405416364215
267.8936,6.1398132154623255
267.47400000000005,6.1936261958153
267.0544,6.245979558971675
266.63480000000004,6.296954446540755
266.2152,6.352941727480506
265.79560000000004,6.405358307163581
265.376,6.459732096160647
264.95640000000003,6.516380406658327
264.53679999999997,6.569176490104385
264.1172,6.62539989379436
263.6976,6.684447479772709
263.278,6.745252171565422
262.8584,6.811527640489622
262.4388,6.87583741496569
262.0192,6.93711155150124
261.5996,6.995756043658695
261.18,7.054346661675528
260.7604,7.123849598303731
260.3408,7.190818280297863
259.9212,7.258471842622846
259.50160000000005,7.332119929329134
259.082,7.401616737643865
258.66240000000005,7.47371393709328
258.2428,7.547545800929894
257.82320000000004,7.618134630483476
257.4036,7.69128398751141
256.98400000000004,7.767265015598738
256.5644,7.843121981318877
256.14480000000003,7.921850091292701
255.7252,8.008540198108754
255.30560000000003,8.102251040322761
254.88600000000002,8.196608040485286
254.46640000000002,8.294580883915065
254.04680000000002,8.387785001371974
253.62720000000002,8.47682196092324
253.2076,8.581784740222233
252.788,8.694007009419716
252.3684,8.80647717394792
251.9488,8.925478535337202
251.5292,9.044947701284551
251.1096,9.166572831704675
250.69000000000003,9.296088798610416
250.27040000000002,9.426133285666133
249.85080000000002,9.559115265112254
249.43120000000002,9.694041082322764
249.01160000000002,9.834168031705858
248.592,9.98753365149675
248.1724,10.14869143234902
247.7528,10.316462787040146
247.3332,10.488290433969091
246.9136,10.667904390088577
246.494,10.848751957980314
246.07440000000003,11.037976636727342
245.65480000000002,11.240445663072565
245.23520000000002,11.453796911870496
244.81560000000002,11.68031888706291
244.39600000000002,11.912579808549413
243.9764,12.154679771610581
243.5568,12.40448445092916
243.1372,12.657352822569878
242.7176,12.930717525740457
242.298,13.21704862606805
241.8784,13.510166690098332
241.45880000000002,13.825779048392446
241.03920000000002,14.15392543528092
240.61960000000002,14.488833442798144
240.20000000000002,14.841287833226227
239.78040000000001,15.21461486067906
239.3608,15.598420171438134
238.9412,16.01055269481598
238.5216,16.427225658410364
238.102,16.857914563003106
237.6824,17.314140834207137
237.26280000000003,17.76271864537619
236.84320000000002,18.240969104052535
236.42360000000002,18.79525461629207
236.00400000000002,19.481698346332845
